
##TITLE=L1760A_10
##JCAMP-DX=5.01  $$ Nicolet v. 1
##DATATYPE=INFRARED SPECTRUM
##ORIGIN=UniL
##OWNER=Nicolet
##LONGDATE=2011/08/18
##TIME=15:26:59
##SPECTROMETER/DATA SYSTEM=Nicolet iS5
##DATA PROCESSING=
Ratio against background
%Transmittance->Absorbance
Truncated
ElementMultiply or ElementDivide
##COMMENTS=
Number of sample scans: 32
Collection length: 51.19 sec
Sample gain: 2.0
Background collected on: Jeu Aout 18 15:25:05 2011 (GMT+02:00);
Number of background scans: 32
Background gain: 2.0
Sample spacing:  1.000
Number of scan points: 12415
Resolution points: 8192
Number of FFT points: 65536
Apodization: N-B fort;
Phase correction: Mertz;
Laser frequency: 15798.0 cm-1
Number of rejected sample scans: 0
Number of rejected background scans: 0
Bench serial number: ASB1000141;
##RESOLUTION=4.000
##XUNITS=1/CM
##YUNITS=ABSORBANCE
##FIRSTX=649.893372
##LASTX=4000.122314
##FIRSTY=0.090555
##MAXX=4000.122314
##MINX=649.893372
##MAXY=0.199558
##MINY=0.001036
##XFACTOR=1.000000
##YFACTOR=1.000000E-009
##NPOINTS=6950
##DELTAX=0.482117
##ZPD=6100
##XYDATA=(X++(Y..Y))
649.893 90554904 90215168 89969352 89740176 89462336 89102296 88672976 
653.268 88222352 87815512 87511992 87341552 87298816 87345000 87426120 
656.643 87486544 87486424 87414936 87287920 87146240 87041000 87026544 
660.018 87144416 87411896 87819976 88336200 88914920 89507408 90076848 
663.393 90609696 91113392 91612016 92131792 92689184 93279904 93873688 
666.767 94410920 94826288 95080152 95194576 95244496 95318560 95471440 
670.142 95710024 96009168 96328072 96628176 96875512 97047624 97134840 
673.517 97134304 97048864 96885952 96659672 96391648 96108496 95838088 
676.892 95596704 95382656 95174320 94940272 94650696 94291880 93873440 
680.267 93425608 92988304 92592560 92253680 91965464 91707408 91452768 
683.642 91178576 90872736 90531240 90157424 89756712 89338384 88914192 
687.016 88500736 88118960 87789440 87526176 87332928 87203824 87127928 
690.391 87098168 87118944 87209376 87402536 87734160 88237416 88934000 
693.766 89829848 90915832 92169688 93561712 95054664 96606696 98175296 
697.141 99712816 101173232 102516536 103711152 104741352 105608616 106329936 
700.516 106931752 107443848 107894560 108304416 108683560 109028904 
703.408 109325040 109543392 109648256 109608464 109405096 109042488 
706.301 108550208 107980344 107394880 106846320 106372640 105988624 
709.194 105691584 105470472 105316104 105225496 105201640 105246936 
712.086 105358208 105523448 105725600 105948152 106180976 106423688 
714.979 106682816 106964648 107269184 107587976 107906672 108214288 
717.872 108509280 108804000 109121416 109488216 109925576 110441984 
720.765 111035416 111696928 112417992 113195264 114029448 114921136 
723.657 115865288 116849168 117854328 118862080 119861648 120851400 
726.550 121837048 122822528 123804208 124766256 125686752 126547264 
729.443 127343896 128093080 128831896 129606384 130457744 131418736 
732.335 132508800 133740712 135130592 136701648 138482752 140502400 
735.228 142776576 145302272 148056464 151003216 154101136 157307856 
738.121 160585504 163894800 167194640 170451152 173649424 176811648 
741.013 179996704 183286528 186733776 190300992 193794048 196840656 
743.906 198950160 199557552 198207328 194685296 189077552 181765968 
746.799 173319856 164405600 155611328 147399232 140087504 133824792 
749.692 128642304 124486144 121256544 118831104 117086824 115923088 
752.584 115264752 115078096 115370744 116182272 117557528 119511200 
755.477 121988760 124841024 127831624 130637200 132920832 134394272 
758.370 134851984 134228512 132593856 130141688 127130968 123850080 
761.262 120577160 117524128 114842880 112616952 110865496 109560832 
764.155 108639848 108024824 107629328 107374472 107201232 107066640 
767.048 106947392 106834280 106725480 106621776 106522816 106427208 
769.940 106333616 106242616 106157144 106081840 106020896 105976528 
772.833 105947688 105931952 105926712 105931536 105948024 105977040 
775.726 106013744 106041192 106026008 105919904 105659336 105174752 
778.619 104406096 103304432 101846144 100033624 97893840 95472928 92828216 
781.993 90027520 87137488 84221992 81340800 78539968 75854568 73309384 
785.368 70919952 68697776 66651932 64786792 63100472 61581508 60209892 
788.743 58958376 57799812 56713796 55688868 54722876 53819296 52981820 
792.118 52210036 51498336 50837228 50217028 49631036 49076436 48554188 
795.493 48067176 47619264 47213888 46854212 46541708 46274688 46044452 
798.867 45833300 45616732 45365544 45053812 44668416 44211596 43702932 
802.242 43171032 42648120 42157784 41710196 41302720 40924164 40563440 
805.617 40212676 39871788 39545792 39240608 38959084 38699800 38457176 
808.992 38224640 37996824 37769920 37541800 37310764 37074512 36831572 
812.367 36582460 36331216 36084556 35850800 35635412 35439184 35256444 
815.742 35077876 34894144 34698752 34491248 34276028 34060020 33849492 
819.116 33648232 33457228 33276036 33104468 32943550 32794196 32656468 
822.491 32527424 32402028 32274842 32142560 32006356 31871230 31744704 
825.866 31632464 31537216 31456490 31385462 31318932 31254516 31192280 
829.241 31134896 31083604 31036198 30986910 30928448 30854342 30762536 
832.616 30656206 30542828 30431434 30329130 30240382 30166502 30107262 
835.990 30062696 30032870 30017958 30016358 30024242 30036384 30048102 
839.365 30057902 30068520 30086844 30120152 30173320 30246386 30334282 
842.740 30429196 30524344 30617664 30712534 30816884 30939584 31088232 
846.115 31266764 31475652 31713088 31976898 32265454 32577064 32909450 
849.490 33259294 33621736 33992792 34370088 34753596 35145272 35546508 
852.865 35956500 36370740 36781624 37180152 37559900 37918176 38256556 
856.239 38579520 38891748 39195456 39489400 39769088 40028792 40263788 
859.614 40471484 40651916 40807164 40940912 41058132 41165652 41272912 
862.989 41392044 41536764 41721652 41958440 42256448 42622788 43063488 
866.364 43586864 44205064 44933052 45788488 46789480 47950748 49286056 
869.739 50806796 52522348 54440416 56562684 58879484 61360108 63946076 
873.113 66549616 69043336 71275728 73086792 74314440 74832840 74566736 
876.488 73503920 71698584 69262824 66355824 63148020 59814160 56513168 
879.863 53362868 50447816 47815008 45478960 43435052 41667780 40158084 
883.238 38885404 37829168 36968788 36281292 35745164 35341800 35055608 
886.613 34876300 34797244 34813472 34921216 35116640 35396832 35761100 
889.987 36211740 36754144 37395912 38146244 39015228 40013748 41155308 
893.362 42457320 43938600 45619528 47514232 49624164 51926924 54368908 
896.737 56862768 59276036 61449568 63212864 64394168 64864152 64551412 
900.112 63457644 61659288 59297040 56559740 53640316 50725644 47972764 
903.487 45485364 43326672 41519480 40058076 38919868 38074728 37491516 
906.862 37138356 36986184 37011112 37194300 37525436 38002216 38628848 
910.236 39412112 40356424 41458492 42702296 44055604 45463836 46856020 
913.611 48142092 49219288 49992540 50378976 50325656 49821448 48898700 
916.986 47630984 46115044 44465568 42791468 41179788 39698360 38387496 
920.361 37265384 36335796 35590596 35014408 34585176 34277748 34065324 
923.736 33921604 33825456 33761060 33717336 33688080 33667992 33651740 
927.110 33634232 33610784 33578852 33538364 33491798 33442088 33391918 
930.485 33342220 33293352 33246596 33205320 33175990 33165906 33182464 
933.860 33229642 33307552 33412244 33538256 33679956 33833516 33997200 
937.235 34170232 34351764 34540364 34733960 34931020 35131656 35338024 
940.610 35553448 35780348 36019316 36268216 36523060 36779820 37035540 
943.985 37290832 37548304 37811632 38083880 38366360 38658868 38960712 
947.359 39271616 39592796 39926600 40275020 40638456 41014392 41397692 
950.734 41781584 42159100 42524116 42872724 43203240 43515768 43812720 
954.109 44099504 44383904 44675944 44987696 45330384 45712648 46139696 
957.484 46612712 47130636 47691848 48296300 48946392 49646860 50402860 
960.859 51218856 52097540 53039920 54045812 55115576 56250772 57454220 
964.233 58729700 60081192 61512212 63025644 64623000 66304676 68067912 
967.608 69905936 71804736 73743096 75691688 77612168 79463384 81202280 
970.983 82787600 84186352 85373952 86335920 87067960 87574864 87869704 
974.358 87971408 87906824 87708496 87411936 87057032 86683680 86329216 
977.733 86031664 85826624 85746736 85824088 86084576 86547624 87225096 
981.108 88121152 89234440 90561848 92101848 93854528 95819208 97988408 
984.482 100336424 102807976 105317792 107738824 109911832 111672632 
987.375 112854656 113324584 113006224 111885648 110020840 107529024 
990.268 104584336 101385248 98129896 95011080 92180584 89747384 87781080 
993.643 86308760 85326968 84810640 84723440 85023728 85669440 86625432 
997.017 87861432 89353160 91082816 93034152 95190000 97529184 100018312 
1000.392 102608264 105234232 107805576 110216352 112355336 114107608 
1003.285 115380384 116113696 116289192 115937504 115136184 114007304 
1006.178 112691288 111341528 110107240 109108048 108438376 108161584 
1009.070 108309312 108893104 109909104 111346032 113188904 115423128 
1011.963 118037736 121023560 124374944 128088816 132159992 136577664 
1014.856 141317328 146325312 151512768 156744704 161826752 166533552 
1017.748 170615824 173830112 175996000 177015600 176906592 175798976 
1020.641 173934736 171634912 169230400 167054720 165382080 164390800 
1023.534 164176144 164739840 166014112 167876288 170177728 172764288 
1026.427 175472736 178152256 180662304 182867280 184656224 185944912 
1029.320 186684944 186872848 186548112 185788864 184691360 183366736 
1032.213 181925936 180461280 179047696 177728240 176508032 175351664 
1035.106 174186192 172916512 171431440 169630816 167443184 164829632 
1037.999 161792416 158366368 154613504 150608448 146432480 142171792 
1040.892 137904416 133702336 129629168 125732824 122053840 118628200 
1043.785 115488872 112674328 110226424 108184792 106585824 105454160 
1046.678 104799848 104618896 104895008 105604392 106716488 108197928 
1049.571 110014608 112127680 114498096 117086784 119853608 122764360 
1052.464 125788016 128895376 132056904 135233984 138371008 141397808 
1055.357 144221552 146734032 148828880 150401344 151366496 151672016 
1058.250 151301376 150284048 148693440 146653824 144324736 141882480 
1061.144 139519248 137407568 135691312 134486656 133867216 133871328 
1064.037 134503776 135738064 137517248 139752768 142337664 145141184 
1066.930 148018432 150834032 153455664 155770224 157693504 159158896 
1069.823 160121328 160553984 160443104 159790368 158610448 156932512 
1072.716 154795792 152248048 149349552 146170512 142797248 139338784 
1075.609 135914640 132655592 129696640 127153040 125124680 123687016 
1078.502 122881968 122720232 123173368 124173712 125603560 127299248 
1081.395 129073160 130708648 132002216 132797136 132994216 132580104 
1084.288 131622912 130267304 128701392 127130880 125767616 124786120 
1087.181 124320184 124452960 125205744 126543088 128373888 130572024 
1090.074 132975776 135405664 137693408 139676176 141216032 142213440 
1092.967 142598896 142342224 141450656 139966752 137960640 135517456 
1095.860 132732512 129692224 126469616 123127216 119713728 116271992 
1098.753 112844392 109470096 106186896 103030128 100027824 97204016 94580032 
1102.129 92174152 90005424 88092792 86452712 85100864 84050544 83311888 
1105.504 82894584 82806360 83052856 83637232 84558320 85809752 87378592 
1108.879 89245592 91384832 93760592 96330264 99039656 101818920 104588928 
1112.254 107255352 109711688 111856544 113591904 114838176 115546496 
1115.147 115696896 115302728 114403480 113064000 111364696 109389368 
1118.041 107226128 104951536 102624504 100288544 97968360 95675992 93418792 
1121.416 91204328 89045024 86961000 84976624 83121384 81427680 79926240 
1124.791 78647928 77621320 76868464 76405512 76240912 76374504 76798752 
1128.166 77499944 78460056 79654568 81053432 82619976 84305264 86051048 
1131.542 87791344 89450408 90956728 92250200 93288488 94059504 94582504 
1134.917 94909024 95109888 95270616 95477056 95795568 96269304 96906120 
1138.292 97679328 98527312 99363344 100093656 100618592 100851488 100728672 
1141.667 100205776 99263136 97901232 96138176 94006600 91551880 88833368 
1145.042 85916144 82869720 79765432 76665744 73627712 70700840 67923216 
1148.418 65325552 62929080 60744184 58772680 57009112 55443840 54065548 
1151.793 52863920 51829844 50955136 50231464 49650428 49203260 48882644 
1155.168 48683860 48604956 48646428 48810084 49097736 49510704 50049868 
1158.543 50716220 51511840 52438892 53499268 54692248 56012548 57447680 
1161.919 58979060 60579016 62211808 63836792 65404468 66861592 68155320 
1165.294 69230488 70038680 70542288 70714880 70547240 70046736 69236160 
1168.669 68148304 66822948 65304256 63634036 61854284 60006048 58125488 
1172.044 56246436 54398012 52602076 50876896 49237252 47694808 46260940 
1175.420 44945252 43754488 42692096 41757508 40946992 40255280 39677268 
1178.795 39208800 38845548 38583180 38415404 38333564 38327700 38386844 
1182.170 38499792 38656624 38847320 39061592 39289568 39521404 39748572 
1185.545 39965832 40171096 40365476 40551760 40732844 40910368 41083736 
1188.921 41250648 41408808 41556524 41693384 41820108 41938512 42051148 
1192.296 42161876 42277012 42406900 42564936 42768508 43036928 43387232 
1195.671 43833872 44385808 45045472 45808372 46661444 47583808 48542408 
1199.046 49493696 50387048 51163052 51763992 52141660 52260560 52107140 
1202.422 51690648 51043112 50211936 49255252 48237536 47217436 46248484 
1205.797 45375292 44627728 44024288 43570896 43263672 43091404 43038976 
1209.172 43090676 43229484 43438124 43700180 43997448 44312568 44631252 
1212.547 44941872 45238368 45519800 45789672 46054216 46320584 46595964 
1215.923 46886100 47195640 47527284 47881412 48255384 48642796 49034520 
1219.298 49419028 49784436 50120928 50421508 50682820 50904688 51089400 
1222.673 51240704 51363312 51463492 51548888 51628028 51710432 51803860 
1226.048 51913144 52039900 52182796 52339116 52507836 52691212 52895920 
1229.424 53133036 53414800 53754676 54164444 54653240 55227504 55890472 
1232.799 56641648 57476308 58384584 59352612 60361292 61389228 62414592 
1236.174 63413888 64364536 65243452 66023992 66677972 67173296 67475384 
1239.549 67552800 67378944 66935964 66217952 65230860 63992104 62527380 
1242.925 60872020 59069516 57166428 55215840 53270600 51376624 49575284 
1246.300 47898212 46366812 44996996 43798064 42773848 41923260 41239316 
1249.675 40710280 40319700 40050884 39887512 39814840 39821164 39896016 
1253.050 40029192 40211076 40432676 40686668 40969240 41279724 41620152 
1256.426 41992272 42395068 42821708 43258984 43684388 44069320 44381224 
1259.801 44583740 44643848 44535132 44240320 43756248 43094956 42284168 
1263.176 41361828 40373804 39368068 38384708 37456768 36606756 35847308 
1266.551 35185116 34621952 34156468 33784376 33498600 33290166 33149064 
1269.927 33066460 33036426 33055518 33122454 33236760 33396606 33599076 
1273.302 33840824 34118832 34432240 34782956 35174228 35609984 36093480 
1276.677 36626944 37211232 37847352 38535744 39275932 40065016 40895364 
1280.052 41755104 42626300 43487348 44316896 45093332 45798540 46418208 
1283.427 46939888 47353616 47650804 47824444 47869724 47786232 47577928 
1286.803 47253048 46824024 46305688 45713568 45065504 44381592 43683692 
1290.178 42998000 42352000 41769400 41269632 40861000 40540300 40291236 
1293.553 40086820 39894236 39676032 39398724 39037304 38578328 38024164 
1296.928 37392196 36713616 36025364 35366100 34770360 34260900 33851280 
1300.304 33544988 33338714 33225242 33195090 33237762 33340286 33487826 
1303.679 33664988 33854972 34042568 34215292 34361912 34472596 34538744 
1307.054 34551340 34503804 34392680 34221316 33999388 33742796 33472184 
1310.429 33207860 32968428 32770112 32624926 32543138 32533676 32603462 
1313.805 32756928 32995596 33317104 33717052 34190164 34732848 35343708 
1317.180 36023564 36774484 37597796 38493456 39458884 40489632 41579860 
1320.555 42721084 43899852 45096748 46282800 47417436 48455268 49346520 
1323.930 50046372 50526608 50778972 50821356 50692280 50449380 50157184 
1327.306 49874628 49653436 49527488 49511224 49601952 49783064 50030608 
1330.681 50317804 50623916 50936728 51254724 51585900 51944660 52349136 
1334.056 52814900 53354140 53972792 54670148 55438000 56260240 57114840 
1337.431 57971576 58794116 59544712 60183940 60678108 61005036 61154616 
1340.807 61130888 60947464 60624924 60185572 59652008 59049320 58402852 
1344.182 57738160 57080072 56447092 55850264 55293768 54777600 54302144 
1347.557 53873756 53505676 53219584 53042276 53000536 53121280 53428364 
1350.932 53942064 54680332 55657416 56881956 58355208 60068252 61999988 
1354.308 64112796 66354736 68658336 70938600 73105688 75063504 76714960 
1357.683 77977040 78779040 79072256 78836840 78082560 76850440 75203384 
1361.058 73231176 71041528 68750056 66484080 64360192 62466352 60853760 
1364.433 59525176 58443448 57541368 56742340 55973988 55177160 54319304 
1367.809 53394492 52422892 51441296 50495900 49633264 48888836 48288008 
1371.184 47842940 47553308 47410488 47399844 47507616 47721284 48032496 
1374.559 48434896 48921176 49479920 50095828 50749364 51421532 52095932 
1377.934 52759636 53404608 54026076 54619908 55181300 55703824 56180176 
1381.310 56604996 56977340 57302096 57588772 57849096 58093180 58326332 
1384.685 58550356 58766348 58979856 59205476 59467040 59792220 60206620 
1388.060 60722732 61336792 62030296 62775716 63541712 64294340 65002052 
1391.435 65632948 66152236 66527328 66726616 66728236 66528528 66148684 
1394.811 65633140 65031916 64387284 63718168 63020052 62275744 61473084 
1398.186 60619436 59751536 58927524 58208032 57639580 57237336 56988032 
1401.561 56859372 56814732 56820772 56850756 56887204 56918292 56936724 
1404.936 56939068 56925056 56897292 56859484 56815560 56767184 56714512 
1408.312 56657696 56599900 56549660 56522564 56537772 56612244 56756800 
1411.687 56971368 57246256 57565540 57913948 58281200 58663020 59060556 
1415.062 59476804 59912812 60367232 60837144 61322864 61832548 62386360 
1418.437 63014424 63744804 64595544 65562696 66622384 67740736 68884272 
1421.813 70026880 71146120 72225960 73255136 74226104 75137592 75993800 
1425.188 76800928 77561064 78266424 78895848 79419544 79801664 80010280 
1428.563 80028288 79856856 79515832 79034224 78445960 77783312 77074928 
1431.938 76351112 75639464 74959216 74316680 73698456 73072792 72397528 
1435.313 71639376 70796496 69915440 69081408 68383584 67874944 67552488 
1438.689 67369664 67261136 67169312 67053720 66897072 66702776 66486672 
1442.064 66267616 66058404 65864712 65686404 65521316 65367720 65224348 
1445.439 65088728 64955488 64819680 64681448 64552984 64459540 64435824 
1448.814 64517884 64729908 65082260 65572716 66192368 66928460 67764632 
1452.190 68680456 69643424 70605320 71505440 72258832 72759968 72892680 
1455.565 72544504 71660208 70292632 68628496 66915124 65349660 64020172 
1458.940 62914224 61977516 61157016 60422216 59760776 59167276 58630940 
1462.315 58132988 57650820 57170732 56700356 56275556 55949264 55776792 
1465.691 55792428 56000300 56379932 56897444 57516896 58198716 58903200 
1469.066 59588644 60205100 60701888 61032420 61162624 61086496 60836492 
1472.441 60483224 60108244 59778800 59528216 59357128 59250744 59194844 
1475.816 59184668 59223096 59314360 59455756 59634332 59829448 60019588 
1479.192 60185460 60315832 60406832 60460564 60482804 60480332 60460296 
1482.567 60427812 60385316 60330640 60256144 60147708 59986304 59753168 
1485.942 59433644 59021116 58516388 57923716 57243840 56470560 55593240 
1489.317 54607248 53527752 52395936 51271800 50212716 49255620 48403260 
1492.693 47627876 46881968 46114156 45280988 44356084 43335348 42234976 
1496.068 41084392 39912944 38741276 37579444 36434516 35316136 34240460 
1499.443 33226278 32291296 31446300 30693970 30033046 29460528 28972592 
1502.818 28563756 28221704 27924050 27633344 27303278 26891888 26381652 
1506.194 25804990 25242722 24789070 24497372 24362564 24338874 24375004 
1509.569 24431996 24490430 24547436 24608972 24681880 24769286 24869376 
1512.944 24978054 25092130 25210696 25334772 25464612 25598952 25735904 
1516.319 25876694 26028824 26205572 26420596 26681422 26983900 27311784 
1519.695 27641220 27950800 28232170 28500136 28784520 29117698 29512656 
1523.070 29957354 30422158 30874726 31294468 31676624 32036710 32401312 
1526.445 32799698 33249174 33751320 34297252 34876120 35482756 36118976 
1529.820 36790316 37500260 38245192 39016676 39804636 40605200 41427508 
1533.196 42294764 43236036 44267616 45387984 46576120 47805172 49046800 
1536.571 50279560 51493484 52681556 53843896 54984272 56109892 57225956 
1539.946 58331220 59425132 60503524 61563828 62607972 63635880 64643376 
1543.321 65618576 66545136 67404872 68184120 68880192 69497816 70041176 
1546.697 70503704 70858400 71058584 71052576 70795480 70276424 69526744 
1550.072 68613944 67606568 66540504 65403580 64145060 62705464 61053888 
1553.447 59217324 57285800 55387824 53628432 52054768 50636388 49279968 
1556.822 47848784 46194640 44212512 41902460 39433408 37098328 35163196 
1560.198 33728900 32738314 32060434 31567932 31165154 30785336 30389074 
1563.573 29960548 29507620 29057184 28644942 28302506 28041340 27850384 
1566.948 27699346 27552420 27376994 27155852 26892520 26611066 26346198 
1570.323 26127024 25969302 25872614 25826090 25814100 25818880 25821448 
1573.698 25798592 25726552 25586230 25374254 25113440 24851484 24647406 
1577.074 24541580 24543474 24634464 24784756 24965526 25157746 25354336 
1580.449 25556042 25767826 25994030 26235700 26491236 26758940 27038660 
1583.824 27333342 27646870 27982250 28339534 28717078 29112774 29527374 
1587.199 29964988 30433246 30940048 31491116 32088864 32732990 33421726 
1590.575 34154172 34929764 35746996 36600664 37481584 38376092 39268860 
1593.950 40146380 40997096 41811500 42580648 43293432 43936732 44497908 
1597.325 44965096 45331228 45593396 45751968 45808336 45763528 45617464 
1600.700 45370656 45025736 44591636 44083220 43522984 42938304 42355688 
1604.076 41798876 41284864 40823616 40421368 40083404 39815532 39624336 
1607.451 39513564 39482320 39523292 39626080 39781544 39985740 40240960 
1610.826 40553616 40929152 41366892 41858164 42386188 42931608 43474492 
1614.201 43995100 44478192 44911924 45294412 45637196 45971184 46339048 
1617.577 46776748 47305544 47922704 48606696 49323952 50038752 50723108 
1620.952 51356824 51936484 52474112 52994884 53526136 54088592 54690780 
1624.327 55328244 55989820 56665020 57347052 58032696 58720484 59411376 
1627.702 60109384 60825552 61576732 62386280 63276456 64260720 65340108 
1631.078 66502192 67726488 68986792 70262440 71543648 72831512 74140848 
1634.453 75495664 76927560 78460888 80110480 81881504 83764024 85745048 
1637.828 87808456 89935152 92100008 94273032 96429960 98549680 100623272 
1641.203 102653128 104642128 106583704 108457256 110220104 111818944 
1644.096 113203648 114334584 115199856 115819560 116249264 116562544 
1646.990 116839112 117152784 117552968 118067096 118698480 119427744 
1649.883 120207696 120955968 121563072 121883200 121778448 121199296 
1652.776 120289208 119376840 118777960 118618872 118802400 119141672 
1655.669 119457408 119635520 119625960 119422112 119046000 118525712 
1658.562 117881320 117114288 116211592 115153376 113922824 112513040 
1661.455 110929960 109193120 107338416 105417416 103491088 101618448 
1664.348 99840312 98164288 96561208 94966296 93291072 91434440 89306760 
1667.723 86850632 84061720 80996600 77762064 74491328 71307352 68300128 
1671.098 65517040 62963396 60610520 58401032 56259376 54107956 51894924 
1674.474 49628028 47396220 45351568 43640424 42346920 41462900 40917136 
1677.849 40617680 40493160 40510292 40669420 40988904 41481932 42141060 
1681.224 42941376 43857476 44885360 46063760 47476532 49227304 51367824 
1684.599 53860288 56589824 59433224 62323668 65257080 68263176 71368000 
1687.975 74566976 77822184 81051912 84160848 87068528 89722616 92111392 
1691.350 94252400 96174640 97900944 99437528 100767952 101861184 102683688 
1694.725 103223864 103513752 103639848 103710816 103790080 103860400 
1697.618 103813856 103486256 102675208 101207024 99030712 96313680 93430376 
1700.993 90769776 88542296 86710264 85093416 83475576 81687104 79629608 
1704.369 77282752 74698936 71981512 69249960 66594808 64061836 61654744 
1707.744 59352420 57121452 54924408 52725288 50493596 48214064 45890192 
1711.119 43547852 41225476 38957380 36768568 34664512 32635466 30669790 
1714.494 28765294 26935070 25205534 23601544 22134292 20793652 19562010 
1717.870 18429702 17407142 16523190 15804360 15256047 14855493 14556408 
1721.245 14303891 14053164 13780794 13493453 13219009 12993248 12837255 
1724.620 12747235 12696465 12650239 12582974 12485025 12363339 12229928 
1727.995 12090799 11938604 11755584 11524525 11239829 10912404 10562411 
1731.371 10204354 9834833 9425598 8936143 8334985 7635471 6906446 6246169 
1735.228 5727411 5363655 5117231 4927478 4739381 4515708 4247446 3950526 
1739.085 3657551 3398134 3184896 3009197 2852479 2699819 2549679 2413117 
1742.943 2305145 2234000 2194202 2169460 2141122 2099269 2047099 1999130 
1746.800 1970804 1970172 1991008 2016173 2025727 2008950 1970371 1927969 
1750.658 1902376 1904905 1932262 1970005 2002359 2021799 2032185 2043804 
1754.515 2066908 2104097 2148548 2186643 2207190 2208489 2201096 2201728 
1758.373 2224575 2272635 2336291 2397658 2440140 2457267 2457100 2458333 
1762.230 2480026 2531414 2606508 2689417 2763204 2818595 2856515 2885666 
1766.087 2915320 2949979 2985843 3013034 3021976 3010632 2984975 2956585 
1769.945 2934367 2918289 2898141 2859183 2791115 2697018 2594842 2507219 
1773.802 2450136 2424179 2415883 2406154 2379900 2332194 2269704 2204992 
1777.660 2149646 2106560 2068706 2022731 1957723 1872625 1777796 1690837 
1781.517 1625911 1586868 1565086 1545168 1512083 1460051 1394761 1330312 
1785.375 1280794 1252448 1240918 1235667 1226264 1208620 1186891 1170279 
1789.232 1166392 1176026 1190911 1197024 1182738 1146126 1097824 1055939 
1793.089 1036342 1043417 1069391 1099386 1120646 1128718 1128021 1128386 
1796.947 1138651 1160710 1188519 1210647 1216794 1204234 1179814 1156657 
1800.804 1146558 1154431 1176026 1201510 1221712 1233807 1242114 1254974 
1804.662 1278435 1312266 1348792 1377144 1389409 1384290 1368336 1351916 
1808.519 1343906 1345900 1352082 1351783 1337757 1310371 1278468 1254542 
1812.376 1247763 1259161 1280694 1299537 1305453 1295782 1276740 1260058 
1816.234 1256070 1268665 1293522 1320973 1342510 1356071 1366807 1384290 
1820.091 1415603 1460184 1509390 1550688 1573632 1574730 1558968 1536888 
1823.949 1519431 1511817 1512050 1513280 1510055 1501111 1490505 1484287 
1827.806 1485218 1489973 1490571 1477239 1446254 1403171 1361555 1335364 
1831.664 1331642 1346964 1369698 1386019 1386551 1371028 1347728 1329116 
1835.521 1323798 1333071 1349157 1361123 1360857 1348326 1331409 1322136 
1839.378 1329049 1352813 1385155 1413443 1427504 1422950 1403836 1378739 
1843.236 1357434 1343839 1335464 1326125 1312266 1295981 1284948 1286510 
1847.093 1303891 1332938 1364713 1388944 1400113 1400711 1399614 1407094 
1850.951 1428535 1461414 1495924 1521194 1530304 1524851 1513446 1507561 
1854.808 1514311 1533097 1555376 1571072 1573466 1563424 1548327 1538052 
1858.666 1538118 1546997 1556208 1556041 1541543 1515874 1489474 1473349 
1862.523 1474779 1492300 1517303 1538484 1548493 1547163 1541410 1539814 
1866.380 1546731 1559533 1569010 1565219 1543771 1510387 1478070 1460981 
1870.238 1465170 1486515 1511950 1528675 1528509 1513347 1492400 1477339 
1874.095 1475277 1485318 1498218 1503039 1493530 1471188 1445722 1428967 
1877.953 1428867 1445523 1471188 1495093 1510055 1515874 1518500 1525350 
1881.810 1540679 1561462 1579186 1585704 1577191 1558369 1540213 1534627 
1885.667 1547063 1574331 1605358 1627608 1632929 1622053 1603928 1590726 
1889.525 1591457 1606156 1627874 1647031 1657275 1659105 1658340 1662630 
1893.382 1675868 1695992 1715751 1727727 1729723 1725731 1725132 1735345 
1897.240 1758998 1789673 1816523 1829068 1823477 1804945 1785880 1778428 
1901.097 1789340 1815758 1847834 1874422 1888898 1892625 1893457 1901145 
1904.955 1919848 1946407 1972269 1987647 1987813 1975664 1959654 1948870 
1908.812 1947638 1952997 1956226 1949203 1929267 1901444 1876119 1861910 
1912.669 1862010 1871094 1879314 1876386 1858849 1830831 1802250 1782952 
1916.527 1776564 1778195 1778461 1767382 1742331 1709930 1681656 1668451 
1920.384 1673507 1691602 1711893 1725232 1727594 1723536 1722604 1732883 
1924.242 1755605 1783984 1806808 1815459 1809869 1799122 1796327 1812464 
1928.099 1848966 1896253 1938819 1961518 1959487 1938852 1914856 1902343 
1931.957 1909831 1934658 1966510 1993072 2007419 2010914 2011180 2015907 
1935.814 2027092 2039409 2044103 2034449 2012112 1986681 1972102 1979092 
1939.671 2008584 2050695 2089114 2110889 2111888 2100401 2090945 2097338 
1943.529 2122975 2160902 2197000 2220145 2229170 2234433 2251319 2292554 
1947.386 2360444 2443672 2524882 2586776 2622275 2636176 2642243 2652344 
1951.244 2671047 2692417 2704620 2697619 2671180 2634976 2605442 2595808 
1955.101 2607875 2631376 2649377 2648311 2626009 2594009 2571576 2576043 
1958.958 2611842 2667880 2722925 2757669 2763838 2748799 2730093 2724192 
1962.816 2739163 2770373 2802987 2823297 2826632 2818528 2812292 2819562 
1966.673 2839939 2863019 2872324 2855414 2812092 2756969 2710988 2692184 
1970.531 2705687 2742730 2785146 2817994 2833969 2838138 2842774 2859217 
1974.388 2889535 2929030 2969762 3010398 3060448 3137602 3255530 3415499 
1978.246 3598044 3771609 3901310 3965940 3965071 3918495 3854172 3795173 
1982.103 3752458 3722346 3692872 3654210 3605528 3556719 3521476 3509251 
1985.960 3518069 3535072 3544559 3535740 3508916 3475482 3450967 3445055 
1989.818 3456511 3472275 3476083 3457546 3419440 3376361 3347277 3345374 
1993.675 3369415 3407551 3440413 3454373 3446825 3428156 3412393 3411057 
1997.533 3425250 3444888 3454874 3444688 3413462 3372187 3337627 3320799 
2001.390 3323036 3334121 3338696 3326008 3296493 3260704 3237203 3240340 
2005.248 3273190 3327176 3387848 3441615 3484800 3523347 3566139 3618592 
2009.105 3678335 3732372 3767197 3776623 3764757 3745506 3735480 3741864 
2012.962 3761382 3780332 3782472 3758875 3715395 3668444 3638572 3638539 
2016.820 3667241 3709881 3748347 3768601 3769069 3761248 3760245 3775252 
2020.677 3805167 3836856 3855108 3850528 3825591 3793736 3772445 3772979 
2024.535 3794103 3823485 3845313 3849625 3838059 3823752 3821613 3841970 
2028.392 3882788 3931367 3971558 3991956 3993829 3988411 3990318 4008877 
2032.250 4043055 4082488 4112993 4125101 4119314 4104797 4092957 4090014 
2036.107 4094061 4096168 4088575 4068975 4044293 4027170 4028508 4050513 
2039.964 4086301 4120318 4138247 4134936 4116404 4096335 4089612 4103493 
2043.822 4133999 4169358 4196223 4208534 4210307 4215259 4236839 4282513 
2047.679 4348707 4421873 4484271 4521668 4528063 4505664 4461206 4401288 
2051.537 4330501 4252766 4171600 4095666 4036668 4004430 4003694 4029845 
2055.394 4067872 4099011 4109079 4092890 4057069 4015833 3984031 3970488 
2059.251 3974802 3988679 4001587 4007841 4007205 4005566 4009847 4022889 
2063.109 4041517 4059243 4068641 4067771 4060513 4055597 4060112 4077002 
2066.966 4101520 4125503 4140890 4144771 4139953 4134467 4134534 4141626 
2070.824 4150658 4152531 4139719 4111420 4074059 4039276 4019144 4020615 
2074.681 4042353 4076935 4115033 4150692 4182673 4213887 4247714 4284421 
2078.539 4320060 4348071 4362329 4361994 4351953 4341043 4337529 4345695 
2082.396 4363299 4384452 4402057 4412099 4415413 4416183 4418660 4424517 
2086.253 4430777 4432149 4424116 4405739 4380067 4353024 4329597 4310556 
2090.111 4292284 4268761 4235568 4193412 4149520 4113929 4096368 4101787 
2093.968 4127644 4165979 4207162 4243665 4273044 4296601 4316981 4335454 
2097.826 4350548 4358747 4357543 4348071 4334383 4323339 4320796 4327924 
2101.683 4341746 4357041 4368554 4374578 4377423 4380301 4386125 4393957 
2105.541 4399079 4395162 4378862 4350614 4316546 4285123 4263641 4255109 
2109.398 4257518 4264879 4271036 4273713 4273177 4271873 4272107 4272609 
2113.255 4269497 4258120 4235668 4203616 4168154 4136776 4115200 4104597 
2117.113 4101051 4098576 4091819 4079511 4064628 4052520 4047938 4051316 
2120.970 4059209 4065631 4065932 4058942 4047236 4034895 4025264 4017606 
2124.828 4007171 3988010 3956545 3914483 3868547 3827596 3798649 3782405 
2128.685 3774283 3765125 3746710 3716230 3677233 3638104 3608335 3593868 
2132.542 3595037 3607900 3627012 3647159 3667943 3690265 3714326 3738254 
2136.400 3757338 3765793 3760914 3745105 3724017 3706339 3698151 3699521 
2140.257 3706606 3712555 3713123 3708411 3704100 3706472 3720475 3745506 
2144.115 3775787 3803696 3825390 3841001 3857247 3882554 3920066 3966442 
2147.972 4012990 4047604 4061116 4053457 4029778 4001554 3977142 3960256 
2151.830 3946581 3929361 3900374 3856244 3798749 3733107 3665036 3601185 
2155.687 3547699 3515330 3520942 3586117 3728729 3954171 4243966 4559369 
2159.544 4850943 5071738 5195758 5223289 5176410 5087427 4987770 4898390 
2163.402 4826048 4769530 4724174 4687966 4662578 4651124 4652765 4662344 
2167.259 4669745 4666497 4648043 4617702 4582909 4552103 4528933 4509783 
2171.117 4485811 4449255 4396602 4333848 4272709 4226334 4202713 4201776 
2174.974 4215092 4231386 4243464 4249822 4254406 4264745 4283283 4307845 
2178.832 4331137 4346230 4349109 4343821 4339437 4344122 4361693 4388000 
2182.689 4412300 4423614 4416216 4391681 4358948 4329832 4311192 4304599 
2186.546 4304967 4304867 4300751 4293957 4290611 4298442 4321833 4358112 
2190.404 4400350 4439547 4469240 4488456 4501680 4513465 4526355 4539514 
2194.261 4547884 4546243 4534391 4515708 4498500 4490833 4495922 4510921 
2198.119 4528866 4539882 4538208 4523309 4500241 4476304 4457624 4446778 
2201.976 4442560 4442560 4445405 4451263 4462712 4480087 4501982 4523911 
2205.833 4540752 4549391 4552003 4554447 4564860 4587965 4623662 4664789 
2209.691 4701698 4724777 4730036 4720355 4702904 4685554 4673095 4664520 
2213.548 4655679 4641311 4619242 4591548 4563990 4541958 4527963 4519860 
2217.406 4512762 4501479 4483736 4461239 4438610 4419931 4407179 4398443 
2221.263 4389573 4377992 4363400 4348539 4338299 4335086 4337261 4339771 
2225.121 4335989 4320896 4295865 4267054 4243464 4232189 4235735 4249889 
2228.978 4267188 4279937 4283183 4277962 4268326 4258387 4250123 4242193 
2232.835 4230918 4214255 4193847 4175346 4166715 4174510 4199300 4236605 
2236.693 4277528 4313267 4338332 4353694 4363400 4373808 4389573 4411697 
2240.550 4437673 4465022 4491335 4517717 4546445 4579594 4616295 4654239 
2244.408 4687631 4712584 4727557 4734625 4738309 4742832 4750201 4759279 
2248.265 4767219 4771038 4769564 4765108 4760854 4759614 4762361 4767118 
2252.123 4770334 4770100 4765644 4759782 4755896 4757035 4762529 4769899 
2255.980 4774421 4772512 4763299 4748895 4732280 4716403 4701162 4684448 
2259.837 4662913 4634580 4600020 4562985 4528464 4500040 4479116 4463817 
2263.695 4450661 4437271 4423413 4411463 4404769 4405572 4412902 4423045 
2267.552 4431513 4434426 4430710 4422777 4414074 4407547 4404066 4401890 
2271.410 4398141 4391046 4381306 4371566 4365675 4366044 4372336 4381607 
2275.267 4389807 4394225 4394493 4393656 4395263 4402861 4416919 4435363 
2279.125 4454745 4472085 4486816 4500743 4517047 4537873 4563487 4591782 
2282.982 4618807 4641613 4659095 4671654 4681568 4690679 4698951 4704713 
2286.839 4706052 4700894 4689875 4675606 4661272 4649718 4642618 4638297 
2290.697 4635049 4631131 4625973 4620849 4617903 4618606 4622993 4629825 
2294.554 4636623 4641412 4643857 4644794 4645698 4647608 4650220 4651559 
2298.412 4650052 4644292 4634948 4624332 4615424 4610133 4608894 4609698 
2302.269 4609999 4607321 4601192 4592620 4584382 4578857 4577049 4578589 
2306.126 4581603 4584248 4585253 4584616 4583076 4581469 4580063 4578254 
2309.984 4575408 4570720 4564760 4558465 4553275 4549257 4546110 4541891 
2313.841 4534994 4524413 4510954 4496525 4483702 4473793 4467265 4462545 
2317.699 4458226 4453238 4447983 4444367 4445171 4452268 4466060 4484271 
2321.556 4503019 4517047 4521199 4510653 4482363 4434426 4367081 4283115 
2325.414 4187725 4087973 3992324 3908866 3842572 3795073 3764022 3744437 
2329.271 3730668 3718904 3707709 3698552 3693941 3695478 3703264 3715662 
2333.128 3729999 3744270 3757805 3771542 3786716 3804331 3823719 3843541 
2336.986 3862362 3879412 3895359 3911908 3930565 3951261 3972862 3992558 
2340.843 4007774 4017405 4021484 4021886 4020615 4018709 4016669 4015164 
2344.701 4015298 4021050 4037169 4068507 4117776 4184078 4262436 4346130 
2348.558 4427363 4499471 4558096 4601259 4628820 4641445 4640675 4628150 
2352.416 4605110 4574002 4538074 4500810 4465524 4434626 4407614 4382845 
2356.273 4358145 4332107 4304833 4278230 4254439 4234832 4219307 4205858 
2360.130 4191739 4175447 4156612 4136441 4117007 4100115 4086200 4075430 
2363.988 4067671 4063223 4062888 4068407 4080113 4097004 4117107 4137043 
2367.845 4154940 4170629 4185483 4202546 4224326 4251562 4283417 4317516 
2371.703 4351083 4382778 4412902 4442393 4472688 4504760 4538040 4572126 
2375.560 4606583 4641981 4679693 4721628 4768491 4819615 4873158 4925936 
2379.417 4975570 5020819 5062049 5100669 5138655 5176376 5213866 5249883 
2383.275 5283287 5313877 5342321 5370264 5398846 5428907 5459808 5489907 
2387.132 5518128 5543599 5566790 5588907 5611093 5633783 5656542 5677959 
2390.990 5697061 5713176 5727075 5739766 5752424 5764981 5776532 5785766 
2394.847 5791642 5793791 5793758 5793254 5794027 5796679 5800541 5803966 
2398.705 5805309 5804000 5800642 5796914 5794732 5795101 5798190 5802925 
2402.562 5808667 5814779 5821999 5831099 5843088 5857966 5874691 5891618 
2406.419 5907639 5922150 5935652 5949156 5963399 5977911 5991348 6002031 
2410.277 6008851 6012379 6014764 6018863 6027094 6040667 6058508 6078265 
2414.134 6097553 6114388 6128972 6142616 6157302 6174274 6193700 6214237 
2417.992 6234303 6252421 6267615 6280288 6291214 6301165 6310712 6320025 
2421.849 6329304 6338953 6350015 6363397 6379435 6398198 6418105 6437945 
2425.707 6456374 6473358 6489232 6505242 6521858 6539281 6556638 6573188 
2429.564 6588394 6603027 6617931 6634450 6652988 6672671 6691178 6706622 
2433.421 6716886 6722270 6723986 6724592 6726139 6730312 6736773 6745018 
2437.279 6753903 6763427 6774196 6787557 6804655 6825590 6849825 6875779 
2441.136 6901868 6927185 6951089 6973748 6994826 7013987 7030318 7043182 
2444.994 7052612 7059179 7064836 7071336 7079756 7090499 7102725 7115692 
2448.851 7128693 7142167 7156348 7171910 7188585 7204957 7218871 7229112 
2452.708 7234570 7236491 7236726 7237501 7240297 7245351 7251786 7258053 
2456.566 7262938 7266712 7269745 7273249 7277730 7282750 7286928 7289624 
2460.423 7290264 7290264 7291612 7296296 7305562 7318670 7333767 7348662 
2464.281 7361771 7372589 7382430 7393181 7406056 7421357 7438177 7454794 
2468.138 7469626 7482267 7492683 7502021 7511056 7519450 7526901 7532868 
2471.996 7537521 7541735 7547736 7556941 7570528 7588196 7608461 7629334 
2475.853 7650073 7670004 7689868 7710576 7732466 7754660 7776012 7794532 
2479.710 7809780 7822093 7833463 7845508 7860116 7877222 7896185 7915688 
2483.568 7935159 7954698 7975351 7998165 8023782 8051730 8080422 8108204 
2487.425 8134435 8158945 8182917 8207364 8232858 8258691 8283479 8305634 
2491.283 8324920 8341943 8358763 8377477 8399502 8424331 8450548 8475753 
2495.140 8498593 8518428 8536303 8553504 8571144 8589190 8606629 8621940 
2498.998 8634209 8643504 8651109 8658647 8667807 8679030 8691706 8704890 
2502.855 8717667 8729973 8742414 8756275 8771895 8789173 8807161 8824541 
2506.712 8840739 8855686 8870091 8885209 8901441 8918284 8935026 8950010 
2510.570 8962322 8972030 8980216 8988097 8996994 9007413 9019016 9031668 
2514.427 9045032 9059614 9075921 9095105 9116489 9139668 9163187 9186030 
2518.285 9207588 9228504 9249590 9272099 9296404 9321827 9347387 9372000 
2522.142 9395362 9418250 9441886 9467689 9496069 9526753 9558083 9588568 
2526.000 9617226 9643854 9668721 9692708 9715545 9736622 9755326 9771050 
2529.857 9784470 9797416 9811955 9830358 9852999 9879336 9907606 9935743 
2533.714 9962424 9987513 10012264 10038000 10065738 10095987 10127868 
2537.090 10160564 10193771 10227490 10261822 10296869 10331783 10365344 
2540.465 10395613 10421508 10442992 10461320 10478903 10497300 10517091 
2543.840 10538036 10557997 10575618 10589979 10602032 10613542 10626649 
2547.215 10642641 10661386 10681286 10700438 10716808 10729748 10739631 
2550.591 10747612 10754541 10761028 10766973 10771898 10775634 10778351 
2553.966 10780831 10783887 10787318 10790885 10793263 10793365 10790613 
2557.341 10785518 10779404 10773630 10769825 10768060 10768263 10769825 
2560.716 10771999 10774479 10777094 10779235 10780117 10778453 10772713 
2564.092 10762319 10747612 10730053 10712155 10696228 10684172 10676497 
2567.467 10673033 10672422 10673577 10675580 10677278 10678127 10677177 
2570.842 10673305 10665868 10655070 10641657 10627192 10613610 10601557 
2574.217 10591472 10582000 10571883 10559695 10545335 10529107 10512372 
2577.593 10496010 10480599 10465529 10450290 10434099 10417300 10400908 
2580.968 10386553 10375456 10368058 10363748 10361237 10359371 10357708 
2584.343 10356555 10356962 10359812 10365683 10373963 10383770 10394053 
2587.718 10404438 10414822 10425921 10438003 10451341 10465223 10478801 
2591.094 10491699 10503648 10515495 10528157 10542279 10557522 10573105 
2594.469 10587772 10600538 10611573 10622269 10634662 10650622 10671403 
2597.844 10696432 10724483 10753352 10781103 10806850 10830459 10852370 
2601.219 10873706 10895212 10916991 10939077 10961368 10983388 11005138 
2604.594 11026583 11047824 11068727 11089257 11109516 11129776 11150173 
2607.970 11170605 11190630 11209636 11227283 11243263 11258599 11274275 
2611.345 11291925 11312772 11336510 11362324 11388243 11412393 11433586 
2614.720 11451718 11467606 11482983 11499178 11516734 11535516 11554877 
2618.095 11574069 11592615 11610754 11628928 11647748 11667693 11688796 
2621.471 11711329 11735498 11761711 11790445 11821871 11855206 11889360 
2624.846 11922699 11953692 11981927 12007712 12032136 12056629 12081907 
2628.221 12107869 12134070 12159319 12183104 12205561 12227610 12250273 
2631.596 12274575 12300616 12327920 12355736 12383282 12410727 12438379 
2634.972 12466987 12497337 12528813 12560803 12591978 12621415 12648704 
2638.347 12674290 12698990 12723760 12748838 12773952 12798454 12821625 
2641.722 12843228 12863296 12882682 12902001 12921252 12940437 12959075 
2645.097 12976725 12993385 13009568 13025922 13043609 13062764 13083355 
2648.473 13104970 13127338 13149947 13173239 13197695 13223450 13250709 
2651.848 13278858 13307385 13335162 13361881 13387373 13411839 13435728 
2655.223 13458899 13481490 13503195 13523362 13541786 13558810 13574466 
2658.598 13589269 13603629 13617577 13631082 13644075 13656247 13667599 
2661.974 13678063 13687295 13695399 13702136 13707676 13712053 13715917 
2665.349 13719440 13722654 13725561 13727578 13727921 13726347 13722688 
2668.724 13717832 13712293 13707026 13702307 13697964 13693143 13687090 
2672.099 13679055 13668659 13656213 13642502 13628107 13613748 13599662 
2675.475 13586227 13573338 13561681 13551187 13542435 13535256 13529412 
2678.850 13524421 13519567 13514543 13508936 13502614 13495880 13488702 
2682.225 13480909 13472741 13464367 13456062 13448338 13441708 13436343 
2685.600 13431900 13427970 13423835 13419256 13414505 13410439 13407773 
2688.976 13407500 13409858 13414437 13420075 13425612 13430054 13432549 
2692.351 13433028 13431831 13429371 13426022 13422536 13419563 13417888 
2695.726 13418640 13422400 13429713 13439863 13452200 13465358 13478586 
2699.101 13491812 13505279 13519704 13536283 13555083 13576107 13598534 
2702.477 13621680 13644964 13668591 13692698 13717799 13744405 13772039 
2705.852 13800324 13828612 13856490 13884269 13912527 13941882 13973190 
2709.227 14006690 14042384 14079791 14118947 14159271 14200830 14243353 
2712.602 14286359 14329369 14372007 14413621 14454383 14494464 14534582 
2715.978 14575219 14616853 14659484 14703525 14749011 14796523 14847093 
2719.353 14901406 14959910 15022366 15087439 15153584 15219157 15282920 
2722.728 15344565 15404124 15462386 15519798 15576565 15632618 15687579 
2726.103 15741309 15793605 15845081 15896253 15947295 15998790 16050359 
2729.479 16102036 16153721 16205722 16258072 16310738 16363652 16416263 
2732.854 16467847 16517475 16564425 16608488 16649388 16687158 16721901 
2736.229 16753444 16781684 16806790 16829282 16849948 16869996 16890320 
2739.604 16911540 16933796 16956706 16979686 17002014 17023620 17044294 
2742.979 17063902 17082788 17101088 17119286 17137968 17157512 17178402 
2746.355 17200774 17223766 17246418 17267102 17284412 17297652 17306892 
2749.730 17313066 17317720 17322340 17327582 17333754 17340306 17346686 
2753.105 17352652 17357858 17362790 17367582 17372652 17377480 17381758 
2756.480 17385172 17387378 17388552 17388930 17389206 17389412 17390000 
2759.856 17390828 17392104 17394450 17398380 17404588 17413314 17424042 
2763.231 17435628 17447184 17457360 17465674 17472432 17478436 17484610 
2766.606 17491854 17500686 17510966 17522418 17534562 17547430 17560920 
2769.981 17575136 17590110 17606224 17623372 17641868 17662056 17684108 
2773.357 17707782 17732528 17757036 17780162 17800702 17818032 17832806 
2776.732 17846580 17860770 17877204 17896540 17918744 17943190 17968812 
2780.107 17994888 18021134 18047628 18074914 18103136 18132430 18162624 
2783.482 18193618 18225578 18259132 18295108 18334024 18376124 18421094 
2786.858 18467870 18515516 18563096 18610024 18656302 18701788 18746276 
2790.233 18789764 18831874 18871980 18910150 18946562 18981832 19016724 
2793.608 19051896 19087556 19123634 19160132 19196702 19233100 19268984 
2796.983 19304004 19337154 19368092 19396468 19422246 19446328 19469786 
2800.359 19493942 19519830 19547556 19576880 19606898 19636432 19664790 
2803.734 19691868 19717732 19743148 19768740 19795026 19822526 19851592 
2807.109 19882324 19914824 19948994 19984276 20019806 20054608 20087852 
2810.484 20119396 20149592 20179336 20210058 20242618 20277438 20314240 
2813.860 20352922 20392718 20433872 20476660 20522060 20570556 20622288 
2817.235 20676496 20732586 20789274 20845898 20902218 20958580 21015298 
2820.610 21072544 21130250 21188278 21245824 21303276 21360560 21418198 
2823.985 21476754 21536566 21597398 21659250 21721526 21784476 21847748 
2827.361 21911970 21976758 22041764 22106222 22169054 22229556 22287486 
2830.736 22343470 22398274 22452774 22507558 22562802 22618404 22674150 
2834.111 22730604 22788390 22849050 22913244 22981572 23053506 23127308 
2837.486 23200982 23272604 23341092 23406408 23469568 23532314 23596856 
2840.862 23665710 23740700 23824312 23918584 24025554 24147576 24286908 
2844.237 24445806 24627136 24833554 25067524 25330278 25621306 25936448 
2847.612 26267414 26601906 26923718 27213986 27454426 27629072 27726116 
2850.987 27740456 27672614 27529968 27324238 27070926 26787592 26491306 
2854.363 26198708 25923680 25677020 25466438 25296068 25167366 25079352 
2857.738 25029120 25012696 25024840 25059976 25112844 25178320 25252870 
2861.113 25334176 25421572 25515278 25616598 25726658 25846556 25976584 
2864.488 26116572 26266076 26424644 26591480 26766342 26948502 27137510 
2867.864 27332600 27533250 27738620 27947620 28159194 28371402 28581626 
2871.239 28786254 28981556 29163796 29329488 29477230 29606788 29719708 
2874.614 29818712 29907550 29989874 30069478 30149204 30231574 30318188 
2877.989 30410360 30508776 30613824 30725512 30843564 30967732 31097484 
2881.365 31231908 31370324 31511884 31654846 31797748 31937950 32072422 
2884.740 32197616 32309606 32404524 32479004 32530996 32560922 32570816 
2888.115 32565710 32552246 32538138 32531388 32539352 32568994 32626748 
2891.490 32719020 32853838 33040288 33289452 33614792 34030776 34551592 
2894.865 35190580 35956392 36850652 37863184 38970788 40133480 41293064 
2898.241 42382716 43326560 44050212 44495812 44624352 44424968 43914808 
2901.616 43136672 42152164 41026812 39830312 38623556 37453156 36355680 
2904.991 35353948 34460364 33679988 33012580 32454368 31999652 31641804 
2908.366 31374242 31190572 31085276 31053600 31091256 31193634 31355616 
2911.742 31570140 31829514 32123972 32442368 32773900 33106040 33426772 
2915.117 33725036 33989820 34212788 34387696 34512124 34586860 34616032 
2918.492 34605556 34561996 34491068 34396696 34280616 34143064 33983552 
2921.867 33802748 33602692 33388198 33166192 32945338 32735490 32545924 
2925.243 32385602 32262172 32180988 32145626 32157366 32214996 32314890 
2928.618 32451332 32617782 32806274 33008538 33216692 33421800 33615616 
2931.993 33789568 33934824 34043892 34110160 34128868 34097688 34016300 
2935.368 33887032 33713504 33500784 33255324 32983370 32692510 32390460 
2938.744 32084656 31783308 31494178 31224288 30980256 30767266 30588688 
2942.119 30446148 30338510 30262268 30211326 30178080 30154070 30130630 
2945.494 30100300 30057014 29996300 29915680 29815198 29696682 29563976 
2948.869 29422660 29278942 29138708 29006668 28885186 28774322 28671558 
2952.245 28573666 28477210 28379398 28278918 28175988 28071138 27965182 
2955.620 27858404 27750698 27641608 27530816 27418674 27305854 27193348 
2958.995 27082246 26972864 26865308 26758802 26653024 26547520 26442216 
2962.370 26337254 26233410 26130964 26030898 25934092 25841598 25754888 
2965.746 25675156 25603628 25540720 25486852 25442160 25406890 25382122 
2969.121 25369230 25370250 25387252 25422032 25475820 25549014 25641482 
2972.496 25752004 25878698 26018550 26166402 26315112 26455986 26578234 
2975.871 26671732 26727192 26737904 26700836 26616948 26491272 26331552 
2979.247 26148066 25952628 25756364 25570204 25403270 25261932 25149706 
2982.622 25066996 25011220 24977212 24958542 24948224 24939522 24926678 
2985.997 24905728 24874184 24831486 24778828 24718812 24655190 24591404 
2989.372 24531274 24477494 24430944 24391864 24359304 24331796 24308002 
2992.748 24287818 24271594 24260452 24255756 24258734 24269808 24288482 
2996.123 24313398 24342308 24373148 24404200 24434554 24464208 24494216 
2999.498 24526120 24561320 24600696 24644390 24691628 24740872 24790720 
3002.873 24840116 24888466 24935836 24982652 25029612 25076964 25124990 
3006.249 25173476 25222282 25271482 25321004 25371198 25422382 25474590 
3009.624 25527966 25582506 25638634 25696530 25756786 25819584 25884642 
3012.999 25951186 26018024 26083814 26147468 26208774 26268328 26327082 
3016.374 26386616 26448062 26512052 26578728 26647492 26718206 26790412 
3019.750 26864532 26940924 27020040 27102348 27187738 27275758 27365842 
3023.125 27457038 27548890 27640478 27731238 27820534 27908008 27992922 
3026.500 28075024 28154174 28230508 28304062 28375010 28443354 28508946 
3029.875 28572108 28632836 28691804 28749752 28806860 28863196 28918262 
3033.250 28970610 29019032 29062570 29100938 29134918 29166242 29196858 
3036.626 29229002 29264410 29303754 29347072 29394080 29444324 29497336 
3040.001 29552840 29610726 29670926 29732910 29796178 29860164 29924518 
3043.376 29988666 30052896 30117098 30181420 30245748 30310050 30374292 
3046.751 30438472 30502980 30568602 30636046 30706062 30779110 30855266 
3050.127 30934070 31015200 31098126 31182634 31268794 31356436 31445764 
3053.502 31536184 31627086 31717826 31807694 31896300 31983994 32071386 
3056.877 32159436 32249004 32340624 32434336 32529208 32624320 32718272 
3060.252 32809454 32896832 32979726 33057626 33131144 33200882 33268164 
3063.628 33334240 33400186 33466712 33534068 33601832 33669032 33735024 
3067.003 33799132 33861384 33922140 33982620 34043784 34106644 34171736 
3070.378 34239276 34309160 34381636 34456596 34534908 34617324 34705064 
3073.753 34799112 34899852 35007260 35120516 35238224 35358732 35480132 
3077.129 35600992 35720052 35836876 35951680 36065364 36179004 36294296 
3080.504 36412356 36533908 36659208 36787464 36917780 37048856 37179360 
3083.879 37308276 37435316 37560408 37683980 37806752 37929096 38051324 
3087.254 38173340 38294624 38414572 38532628 38648404 38761996 38873952 
3090.630 38985140 39096468 39208692 39322324 39437036 39552436 39668408 
3094.005 39784628 39901752 40020652 40142712 40268948 40400456 40537100 
3097.380 40678480 40823760 40971752 41121576 41273020 41425976 41581172 
3100.755 41739012 41900268 42065236 42234100 42406644 42582624 42761668 
3104.131 42943420 43127484 43313492 43500752 43688420 43875144 44059312 
3107.506 44238376 44410292 44572544 44723504 44862028 44987804 45101784 
3110.881 45204836 45298200 45382500 45457696 45523260 45578016 45621144 
3114.256 45652248 45671240 45679008 45676796 45665572 45646764 45620812 
3117.632 45588320 45549384 45504348 45453464 45396920 45335056 45267936 
3121.007 45195864 45119612 45039920 44958408 44876836 44796748 44719540 
3124.382 44646012 44576544 44511196 44450480 44395024 44346068 44305080 
3127.757 44272608 44249092 44233792 44225724 44222968 44224804 44230380 
3131.133 44239884 44254044 44273744 44299392 44331648 44369960 44414144 
3134.508 44463548 44517768 44576252 44638964 44705836 44776728 44851812 
3137.883 44930956 45013716 45099580 45187444 45275916 45363852 45450004 
3141.258 45534260 45616732 45698736 45781272 45865520 45952216 46041320 
3144.634 46132360 46224488 46317484 46411052 46505160 46599948 46695092 
3148.009 46789920 46883520 46975032 47064236 47151284 47237308 47323796 
3151.384 47411780 47502036 47594528 47688408 47782572 47876048 47967956 
3154.759 48058400 48147460 48235648 48323484 48411336 48499688 48588504 
3158.135 48677892 48767560 48856948 48945352 49031848 49115840 49197132 
3161.510 49276220 49354208 49432320 49511964 49593484 49676952 49761584 
3164.885 49846496 49930568 50013284 50094116 50173068 50250320 50325916 
3168.260 50399996 50472788 50545072 50617476 50690976 50766348 50843784 
3171.635 50923020 51003236 51083584 51163164 51241452 51318300 51393484 
3175.011 51466812 51537580 51605640 51670348 51732228 51791992 51851052 
3178.386 51910796 51972040 52034972 52098656 52162244 52224536 52285112 
3181.761 52344316 52403004 52461924 52521448 52580944 52639476 52695400 
3185.136 52747664 52795592 52839632 52880872 52920472 52959436 52998704 
3188.512 53038684 53079568 53121356 53163820 53206628 53249436 53291352 
3191.887 53331736 53369648 53404756 53437320 53467824 53497164 53525616 
3195.262 53553684 53580600 53605792 53628808 53649356 53667800 53685120 
3198.637 53702520 53721188 53742228 53766040 53792892 53822520 53854288 
3202.013 53887332 53920644 53952872 53982512 54008736 54030840 54048776 
3205.388 54063032 54074296 54083300 54090692 54096812 54101612 54105708 
3208.763 54109532 54114112 54120228 54129012 54140720 54155096 54171200 
3212.138 54187944 54204120 54218984 54232688 54245452 54258480 54272332 
3215.514 54287804 54304808 54322756 54340444 54356704 54370148 54380176 
3218.889 54386636 54390352 54392680 54395836 54401728 54411684 54427004 
3222.264 54447664 54472832 54501452 54532180 54563516 54594584 54624496 
3225.639 54652600 54679016 54703596 54726744 54748960 54771136 54793728 
3229.015 54817636 54843312 54871020 54900832 54932944 54967236 55003640 
3232.390 55041776 55081008 55120204 55158196 55193752 55226376 55256212 
3235.765 55284284 55312096 55341264 55372620 55406756 55442972 55480580 
3239.140 55518684 55557092 55596104 55636288 55678360 55722128 55766884 
3242.516 55811680 55855464 55897784 55938900 55980360 56023556 56069888 
3245.891 56119992 56173312 56228632 56284152 56338696 56391440 56442604 
3249.266 56492600 56541700 56590124 56637272 56682196 56724408 56763412 
3252.641 56799736 56834480 56868324 56902388 56936388 56970084 57002236 
3256.017 57032084 57059100 57083400 57105616 57126552 57146772 57166164 
3259.392 57184492 57201008 57215336 57227432 57237676 57246600 57254724 
3262.767 57262248 57268676 57273024 57274344 57272192 57266332 57257900 
3266.142 57248260 57238772 57230380 57223312 57216284 57207400 57194508 
3269.518 57175156 57147868 57112116 57068396 57018252 56963740 56906924 
3272.893 56849740 56793544 56738488 56684272 56630096 56574988 56518340 
3276.268 56459848 56399476 56338020 56275968 56213736 56151668 56089908 
3279.643 56028308 55966752 55905548 55844348 55783308 55722392 55661144 
3283.019 55599456 55537436 55474784 55412140 55349692 55287936 55227088 
3286.394 55167340 55108992 55052796 54999616 54950840 54907448 54869892 
3289.769 54837632 54809588 54783500 54757756 54730768 54702320 54672516 
3293.144 54642380 54612508 54582900 54553180 54522148 54489508 54455064 
3296.520 54419908 54385808 54354976 54328804 54308152 54292908 54282320 
3299.895 54275976 54273572 54275600 54282808 54296024 54315660 54341496 
3303.270 54372252 54406500 54442368 54477936 54511560 54541536 54566932 
3306.645 54586692 54601196 54611080 54618480 54625848 54636216 54651360 
3310.021 54672404 54699312 54730920 54765984 54803500 54843084 54884776 
3313.396 54928960 54975664 55024436 55074688 55125016 55174564 55223212 
3316.771 55270852 55318344 55366292 55414816 55463976 55513488 55562892 
3320.146 55611732 55659716 55706536 55751588 55793896 55832744 55866884 
3323.521 55896088 55920396 55940292 55956612 55969804 55979680 55985940 
3326.897 55987860 55985372 55978736 55969052 55957480 55945232 55932684 
3330.272 55919716 55905092 55887796 55866772 55841180 55811116 55776116 
3333.647 55736144 55691316 55641032 55585708 55525348 55460364 55391064 
3337.022 55317476 55238752 55153684 55060772 54958964 54848124 54729004 
3340.398 54603040 54472116 54337252 54199052 54057068 53910552 53758840 
3343.773 53601668 53439604 53273632 53105440 52936452 52767976 52601216 
3347.148 52436912 52275920 52118456 51964980 51814988 51667696 51521724 
3350.523 51375876 51229148 51081124 50932184 50783068 50635088 50489204 
3353.899 50346192 50206208 50069908 49937184 49808776 49685536 49568264 
3357.274 49457900 49354724 49258664 49169192 49085604 49006888 48932112 
3360.649 48860876 48792732 48727448 48665108 48605440 48548300 48493836 
3364.024 48441820 48392408 48345928 48302820 48263564 48228796 48198252 
3367.400 48171600 48147720 48125028 48101596 48075760 48046188 48011956 
3370.775 47973212 47930364 47884076 47835320 47784568 47731940 47677316 
3374.150 47619744 47557964 47490540 47415660 47331632 47237048 47130672 
3377.525 47011580 46878980 46731988 46569408 46390444 46194084 45979988 
3380.901 45748804 45501772 45240904 44968512 44686668 44397040 44100788 
3384.276 43798244 43490132 43177108 42860180 42540412 42219348 41897972 
3387.651 41577380 41258192 40940292 40623648 40306976 39989408 39669608 
3391.026 39346268 39019396 38689944 38360456 38033964 37713900 37402560 
3394.402 37100752 36807552 36520860 36238176 35957980 35679940 35405100 
3397.777 35135356 34871740 34614060 34359972 34105860 33847412 33580784 
3401.152 33303760 33016510 32721236 32421056 32119584 31820246 31524568 
3404.527 31233440 30946914 30663888 30383816 30106160 29830602 29557414 
3407.903 29286918 29019774 28756266 28496952 28241542 27990024 27742046 
3411.278 27497066 27254836 27015598 26779310 26546358 26317260 26092224 
3414.653 25871418 25654944 25442758 25234610 25030350 24829662 24631870 
3418.028 24436974 24244440 24054128 23866176 23680826 23498386 23319100 
3421.404 23142928 22969554 22798726 22629886 22462998 22298194 22136278 
3424.779 21977978 21824090 21675410 21531900 21393104 21257898 21125068 
3428.154 20993006 20860604 20726814 20591472 20454710 20317366 20180344 
3431.529 20044894 19911944 19781986 19655186 19531058 19409010 19288172 
3434.905 19167784 19047812 18928078 18809486 18692448 18577966 18466418 
3438.280 18357458 18250320 18143278 18034570 17923058 17808020 17690284 
3441.655 17572030 17456050 17345066 17240660 17142656 17048844 16955948 
3445.030 16860006 16758678 16650971 16538678 16425038 16314076 16209058 
3448.406 16111424 16020825 15935367 15852263 15769243 15685106 15599439 
3451.781 15512930 15426198 15339141 15251689 15163054 15072893 14981550 
3455.156 14890091 14800192 14713602 14631280 14553324 14478774 14405915 
3458.531 14332965 14258418 14181487 14102140 14021098 13938838 13856285 
3461.906 13774295 13693998 13616210 13541752 13471476 13405347 13342747 
3465.282 13282684 13223108 13162925 13100838 13036779 12971433 12906131 
3468.657 12842203 12781016 12722976 12667536 12613910 12560292 12505555 
3472.032 12448642 12389215 12327749 12265100 12202767 12141975 12083815 
3475.407 12029241 11978521 11931520 11888065 11847782 11810056 11774376 
3478.783 11739924 11705883 11671164 11634781 11596018 11554537 11511120 
3482.158 11467470 11425286 11387324 11354910 11329130 11309370 11294305 
3485.533 11281791 11269549 11255913 11240067 11222284 11203822 11186040 
3488.908 11170469 11158299 11149901 11145414 11144666 11147284 11153131 
3492.284 11161665 11172917 11186516 11202428 11220244 11240509 11263530 
3495.659 11289952 11320390 11355489 11395182 11439097 11486759 11537319 
3499.034 11590200 11645059 11701288 11759192 11818840 11880335 11944599 
3502.409 12012618 12086302 12167701 12259204 12362725 12479058 12607600 
3505.785 12745938 12890293 13036096 13178841 13314833 13442255 13561750 
3509.160 13676079 13789823 13908319 14036155 14176079 14328958 14493333 
3512.535 14666373 14844419 15023978 15202514 15378240 15550224 15718291 
3515.910 15882162 16041730 16196297 16345108 16486637 16619779 16742321 
3519.286 16852978 16949678 17031028 17096126 17144552 17175884 17190466 
3522.661 17188328 17169472 17133556 17080480 17009354 16919740 16811302 
3526.036 16683646 16537268 16373355 16193822 16001539 15799413 15590543 
3529.411 15376969 15160138 14940430 14718230 14494087 14268416 14042247 
3532.787 13815716 13588141 13358157 13123411 12882238 12634343 12381407 
3536.162 12127494 11878054 11638048 11410931 11197736 10996778 10805118 
3539.537 10619213 10436374 10255409 10076658 9901301 9730488 9564484 9402540 
3543.395 9242652 9081876 8917912 8749379 8576416 8401461 8228739 8063308 
3547.252 7909716 7771054 7647746 7537622 7436020 7337709 7237535 7132298 
3551.109 7021327 6906581 6792707 6683943 6584357 6495388 6416087 6343526 
3554.967 6273800 6203850 6131022 6054645 5975223 5894440 5813604 5734696 
3558.824 5658053 5584745 5515041 5449373 5388480 5333298 5284327 5241801 
3562.682 5204443 5170173 5134799 5093159 5039992 4970811 4883345 4778877 
3566.539 4663281 4545708 4436936 4346197 4278766 4235066 4211144 4200505 
3570.396 4195821 4190970 4180933 4163169 4137009 4103392 4064226 4021752 
3574.254 3978146 3934878 3892851 3852400 3813289 3774818 3736416 3697851 
3578.111 3659122 3620864 3583879 3549135 3517401 3489209 3464860 3444721 
3581.969 3428623 3417102 3409855 3406282 3404745 3402074 3394193 3375927 
3585.826 3342502 3291151 3222782 3142275 3058546 2982607 2923192 2885800 
3589.684 2870290 2872691 2885466 2900776 2911517 2912418 2901310 2878395 
3593.541 2846809 2810491 2774042 2741230 2714622 2695318 2683449 2677781 
3597.398 2676648 2677315 2677681 2675114 2668180 2656612 2641043 2623309 
3601.256 2605542 2589109 2574910 2562844 2552278 2542413 2532681 2522349 
3605.113 2511019 2497122 2478693 2453535 2420348 2380033 2336125 2294119 
3608.971 2260511 2239362 2230903 2230969 2233234 2230336 2217381 2192937 
3612.828 2160968 2128569 2103497 2091844 2095640 2112287 2135462 2157172 
3616.686 2169893 2166896 2144951 2104130 2048897 1987280 1929067 1883906 
3620.543 1858716 1855654 1872559 1903840 1942946 1983419 2021666 2056521 
3624.400 2088981 2120378 2150346 2174588 2185644 2172157 2123941 2036879 
3628.258 1918151 1788009 1673374 1598940 1574697 1595381 1645301 1705972 
3632.115 1761693 1801983 1823178 1826838 1818553 1804512 1789473 1775833 
3635.973 1763556 1752045 1741067 1731786 1726330 1726995 1734347 1747554 
3639.830 1763523 1779193 1791370 1799155 1803181 1805976 1810468 1818686 
3643.688 1831563 1847701 1864306 1877717 1884372 1880811 1864605 1834292 
3647.545 1789141 1729557 1657442 1576825 1494627 1420390 1364812 1337292 
3651.402 1342211 1377908 1437245 1509091 1579951 1637452 1671711 1677598 
3655.260 1656111 1615335 1568711 1529639 1507661 1506431 1522557 1550023 
3659.117 1581314 1611345 1636887 1656876 1671744 1682122 1688475 1691169 
3662.975 1690404 1686945 1682388 1678829 1678662 1683652 1694030 1708433 
3666.832 1723136 1732218 1728459 1705140 1658373 1590726 1512848 1443062 
3670.689 1399913 1396855 1435317 1505566 1588531 1660734 1700184 1689140 
3674.547 1622187 1510687 1384058 1277305 1215764 1206261 1237362 1290165 
3678.404 1345136 1390008 1419892 1437178 1447816 1458555 1473815 1494295 
3682.262 1518833 1545567 1574198 1605757 1641643 1681789 1723203 1759131 
3686.119 1780890 1779925 1750981 1694861 1619858 1538916 1466334 1411681 
3689.977 1378008 1362452 1360059 1366607 1379903 1399614 1425609 1456926 
3693.834 1490804 1523554 1551519 1572269 1585837 1594317 1601201 1609682 
3697.691 1621322 1635257 1648727 1657641 1658206 1648395 1628838 1602565 
3701.549 1575229 1552683 1540679 1541876 1557006 1583975 1619293 1658107 
3705.406 1696525 1730821 1758732 1779259 1792435 1798889 1798889 1792035 
3709.264 1776598 1750814 1712857 1663528 1606589 1549225 1500612 1469094 
3713.121 1460184 1474280 1507428 1552783 1602531 1649060 1686479 1712159 
3716.979 1725698 1729158 1726130 1720309 1714587 1710296 1707768 1706071 
3720.836 1704708 1703776 1703942 1706138 1710828 1717182 1723236 1725798 
3724.693 1721806 1709797 1690637 1668285 1649226 1640612 1647197 1670347 
3728.551 1707103 1750515 1791669 1821448 1833393 1825075 1798856 1761494 
3732.408 1721207 1683785 1649991 1616200 1575827 1525283 1466401 1407559 
3736.266 1361455 1339818 1347795 1383027 1437910 1503472 1572768 1642807 
3740.123 1713390 1785115 1855588 1918118 1959354 1962250 1911927 1803614 
3743.980 1652785 1494494 1373887 1321505 1341679 1416102 1515940 1613207 
3747.838 1684450 1716683 1706204 1659969 1590992 1515375 1446054 1391071 
3751.695 1354475 1339452 1348725 1383061 1440469 1514843 1596379 1674538 
3755.553 1740269 1787244 1813795 1821980 1816390 1801751 1781355 1757235 
3759.410 1731220 1706337 1687776 1680824 1689207 1711992 1744227 1777363 
3763.268 1802150 1811998 1805377 1786612 1763989 1746822 1740568 1745225 
3767.125 1754973 1761327 1756969 1738139 1706670 1668617 1633262 1608418 
3770.982 1598408 1603596 1620623 1645168 1672642 1699851 1725066 1747687 
3774.840 1767848 1785947 1802083 1815758 1825241 1828469 1822978 1807739 
3778.697 1783851 1754807 1726629 1705439 1695194 1696558 1706138 1718745 
3782.555 1728226 1730921 1725631 1714687 1702446 1692965 1689240 1691169 
3786.412 1696591 1702911 1707901 1710895 1713223 1716250 1721573 1730056 
3790.270 1741599 1755871 1772605 1791702 1813063 1835123 1855022 1868366 
3794.127 1871028 1859780 1835223 1801917 1768547 1745126 1738772 1751646 
3797.984 1778561 1809969 1832461 1832827 1802349 1738805 1650889 1556341 
3801.842 1478602 1437245 1440569 1483755 1552882 1629803 1695460 1734946 
3805.699 1740102 1711560 1660601 1605392 1565386 1552317 1568146 1605990 
3809.557 1655579 1707435 1755705 1799189 1840248 1881344 1922411 1959354 
3813.414 1983685 1986049 1958988 1901844 1824476 1746756 1690870 1672875 
3817.271 1695926 1749617 1814693 1868166 1889730 1866569 1796993 1692733 
3821.129 1579053 1486847 1437677 1440004 1485650 1557770 1636222 1704109 
3824.986 1750648 1772605 1773870 1763390 1753077 1751579 1762791 1784749 
3828.844 1811998 1837220 1854722 1862010 1859414 1851328 1842577 1838151 
3832.701 1840946 1851794 1869131 1889331 1907534 1918284 1915988 1896386 
3836.559 1857717 1802582 1737341 1672442 1618495 1582811 1568279 1572502 
3840.416 1589661 1612841 1636521 1656843 1672309 1683319 1691635 1699585 
3844.273 1709331 1722770 1741267 1765552 1795263 1829600 1867434 1907900 
3848.131 1950401 1995435 2043238 2092876 2140923 2179050 2194902 2173556 
3851.988 2100767 1971237 1795662 1604726 1437743 1327421 1286377 1306583 
3855.846 1369599 1454499 1545999 1633528 1711693 1778394 1833227 1875554 
3859.703 1905072 1921778 1926438 1921113 1908433 1890995 1869930 1845006 
3863.561 1816324 1785714 1758466 1742431 1745691 1772306 1819385 1876918 
3867.418 1929067 1959920 1956925 1916686 1847302 1769245 1707003 1677565 
3871.275 1685714 1722039 1770776 1815159 1843376 1852593 1848234 1841346 
3875.133 1843209 1861710 1897151 1943811 1991641 2030188 2050329 2046533 
3878.990 2018936 1973067 1920447 1874089 1846603 1845272 1869763 1912260 
3882.848 1959654 1997366 2012146 1996001 1949735 1884372 1818952 1772439 
3886.705 1759131 1780856 1829400 1889031 1943711 1979258 1986914 1964979 
3890.563 1919449 1861977 1806442 1764820 1744161 1745525 1765852 1799821 
3894.420 1842411 1888399 1934126 1976396 2012346 2039143 2055189 2059217 
3898.277 2051694 2034383 2010847 1984484 1959387 1936822 1916886 1897917 
3902.135 1877384 1853258 1825906 1797159 1771208 1752977 1746390 1753077 
3905.992 1772472 1801418 1836255 1873124 1908799 1941614 1970738 1996001 
3909.850 2017838 2036680 2052992 2067440 2080990 2094208 2107360 2119979 
3913.707 2130467 2136627 2135628 2126072 2107759 2082855 2055023 2028823 
3917.564 2008318 1995402 1990642 1992340 1998731 2008218 2019635 2032385 
3921.422 2045601 2058418 2068739 2075031 2075897 2072101 2066142 2061381 
3925.279 2061681 2069205 2083954 2103131 2122309 2137160 2144086 2141489 
3929.137 2129834 2111455 2089580 2066775 2045135 2026493 2011380 2000795 
3932.994 1995802 1997366 2005755 2020435 2039875 2061581 2083288 2103164 
3936.852 2120112 2134696 2147882 2160768 2174122 2187409 2199264 2207956 
3940.709 2211120 2207756 2197899 2183013 2165663 2149480 2137260 2131200 
3944.566 2131766 2138059 2147782 2158138 2165996 2169227 2166862 2159103 
3948.424 2147482 2134429 2122276 2112887 2107593 2106560 2109723 2116616 
3952.281 2126671 2139258 2153842 2169493 2184944 2198998 2211020 2220611 
3956.139 2228438 2235498 2242992 2252085 2263043 2275167 2287224 2297883 
3959.996 2306077 2311474 2314405 2315704 2316137 2316204 2315904 2314672 
3963.854 2312407 2308942 2304912 2301181 2298982 2299282 2302280 2307943 
3967.711 2315671 2324399 2333560 2342521 2350749 2358178 2364408 2369072 
3971.568 2372104 2373203 2372504 2370205 2367173 2364208 2361976 2361510 
3975.426 2363142 2367506 2374203 2383198 2393660 2404654 2414750 2422846 
3979.283 2428111 2430010 2429077 2426045 2421813 2417615 2413917 2410852 
3983.141 2408119 2405221 2401456 2396991 2391627 2386163 2381566 2378467 
3986.998 2377634 2379600 2384231 2391094 2399790 2408819 2417049 2423346 
3990.855 2426545 2426312 2423113 2417882 2412384 2408153 2406753 2408686 
3994.713 2414150 2421614 2429877 2437141 2442139 2444238 2443938 2441572 
3998.570 2438473 2435608 2433475 2432276 2432076 
##END=
